# TOPAS Version: 4.0
# Parameter File: ./6.6_30MeV.txt
# Results for scorer: DoseOnRTGrid
# Scored in component: Scorer
# X in 1 bin  of 0.5 cm
# Y in 1 bin  of 0.5 cm
# Z in 160 bins of 0.125 cm
# DoseToMedium ( Gy ) : Sum   Standard_Deviation   
0, 0, 0, 6.336983915389283e-07, 1.032451103317976e-11
0, 0, 1, 6.287697829066019e-07, 1.0434506974486e-11
0, 0, 2, 6.438233413064154e-07, 1.087258504491569e-11
0, 0, 3, 6.616425594074826e-07, 1.079582443499635e-11
0, 0, 4, 6.981268825256848e-07, 1.162015717880057e-11
0, 0, 5, 6.300734867181745e-07, 1.038132346506331e-11
0, 0, 6, 6.468935680459253e-07, 1.076051093173617e-11
0, 0, 7, 7.092962732713204e-07, 1.162503206199062e-11
0, 0, 8, 6.456001528931665e-07, 1.066276025887165e-11
0, 0, 9, 7.130107064767799e-07, 1.16932924973897e-11
0, 0, 10, 6.755744834663346e-07, 1.092243229955144e-11
0, 0, 11, 6.831650694039126e-07, 1.125159022616754e-11
0, 0, 12, 6.883068977003859e-07, 1.127316082288048e-11
0, 0, 13, 6.791981377318734e-07, 1.151978242690914e-11
0, 0, 14, 6.977707585065218e-07, 1.125843399279551e-11
0, 0, 15, 6.818071938141657e-07, 1.091739543408617e-11
0, 0, 16, 7.225609124361654e-07, 1.168540351832522e-11
0, 0, 17, 6.722390253344201e-07, 1.058648305652666e-11
0, 0, 18, 7.509057127208507e-07, 1.171922655430549e-11
0, 0, 19, 7.090065992088057e-07, 1.109498639236185e-11
0, 0, 20, 7.353571049861785e-07, 1.142013847848012e-11
0, 0, 21, 7.570015441160649e-07, 1.183580540536123e-11
0, 0, 22, 7.427488526445813e-07, 1.170045480019092e-11
0, 0, 23, 7.111438549145532e-07, 1.082081617870568e-11
0, 0, 24, 8.452815336568165e-07, 1.267651825674254e-11
0, 0, 25, 8.103415893856436e-07, 1.192839205716283e-11
0, 0, 26, 7.825169063835347e-07, 1.170074023159816e-11
0, 0, 27, 7.854970363041502e-07, 1.195541550460856e-11
0, 0, 28, 8.166094858097495e-07, 1.21843552557323e-11
0, 0, 29, 8.110563953778183e-07, 1.203340615992402e-11
0, 0, 30, 8.688038519721886e-07, 1.262638555592878e-11
0, 0, 31, 9.288077649216575e-07, 1.326220422700802e-11
0, 0, 32, 9.558074225424207e-07, 1.307224260387142e-11
0, 0, 33, 1.059659780366928e-06, 1.442892371214307e-11
0, 0, 34, 1.149969534708362e-06, 1.483417109164826e-11
0, 0, 35, 1.231673991242133e-06, 1.523914312646638e-11
0, 0, 36, 1.452499418519437e-06, 1.737088335095852e-11
0, 0, 37, 1.655537175793143e-06, 1.865240893513187e-11
0, 0, 38, 1.899225935630966e-06, 1.960866012052878e-11
0, 0, 39, 2.198851916546118e-06, 2.160101404578145e-11
0, 0, 40, 2.592801820355817e-06, 2.314850298258835e-11
0, 0, 41, 3.000520564455655e-06, 2.488319170470125e-11
0, 0, 42, 3.488639549686923e-06, 2.731012095842985e-11
0, 0, 43, 3.88888611269067e-06, 2.85461318334965e-11
0, 0, 44, 4.469489795155823e-06, 3.042932396945987e-11
0, 0, 45, 5.143120688444469e-06, 3.307247839992899e-11
0, 0, 46, 5.801804036309477e-06, 3.521279104730114e-11
0, 0, 47, 6.560137990163639e-06, 3.728923447356317e-11
0, 0, 48, 7.206835107353982e-06, 3.871705997572663e-11
0, 0, 49, 8.18136140878778e-06, 4.194469351839065e-11
0, 0, 50, 8.783641533227637e-06, 4.242692201156165e-11
0, 0, 51, 9.634969501348678e-06, 4.456568386770405e-11
0, 0, 52, 1.057356348610483e-05, 4.671168233372366e-11
0, 0, 53, 1.154873189079808e-05, 4.884273684505746e-11
0, 0, 54, 1.223520757775987e-05, 4.978675484249987e-11
0, 0, 55, 1.341177994618192e-05, 5.214793487066595e-11
0, 0, 56, 1.448462717235088e-05, 5.409580168058565e-11
0, 0, 57, 1.530362715129741e-05, 5.540824592987328e-11
0, 0, 58, 1.613284257473424e-05, 5.671527767558651e-11
0, 0, 59, 1.692691876087338e-05, 5.80433849848214e-11
0, 0, 60, 1.791595786926337e-05, 5.954029243533931e-11
0, 0, 61, 1.837173113017343e-05, 5.978236912072037e-11
0, 0, 62, 1.947414239111822e-05, 6.221311107111505e-11
0, 0, 63, 2.008655246754643e-05, 6.204750615555977e-11
0, 0, 64, 2.107737054757308e-05, 6.418328529200818e-11
0, 0, 65, 2.186000529036392e-05, 6.504582071810029e-11
0, 0, 66, 2.275846054544672e-05, 6.617875397595762e-11
0, 0, 67, 2.370467336731963e-05, 6.753846569754591e-11
0, 0, 68, 2.408039836154785e-05, 6.736412876785993e-11
0, 0, 69, 2.491017949068919e-05, 6.84996836731954e-11
0, 0, 70, 2.553361628088169e-05, 6.953238010178758e-11
0, 0, 71, 2.624489206937142e-05, 6.993916002065726e-11
0, 0, 72, 2.699992000998463e-05, 7.058147244960068e-11
0, 0, 73, 2.764045348158106e-05, 7.148992114714027e-11
0, 0, 74, 2.825685442076065e-05, 7.195771647985128e-11
0, 0, 75, 2.893088640121277e-05, 7.289606043247682e-11
0, 0, 76, 2.913967364293057e-05, 7.274386509456032e-11
0, 0, 77, 2.987854895764031e-05, 7.364740481964442e-11
0, 0, 78, 3.024127363460138e-05, 7.375584442797541e-11
0, 0, 79, 3.070828461204655e-05, 7.42227040620505e-11
0, 0, 80, 3.123379065073095e-05, 7.480717087551131e-11
0, 0, 81, 3.148940595565364e-05, 7.453510582454849e-11
0, 0, 82, 3.202239167876542e-05, 7.506313678187253e-11
0, 0, 83, 3.227443085052073e-05, 7.563795518641743e-11
0, 0, 84, 3.219411883037537e-05, 7.494733269564306e-11
0, 0, 85, 3.272093817940913e-05, 7.515221514703191e-11
0, 0, 86, 3.314498098916374e-05, 7.588852808882912e-11
0, 0, 87, 3.304150595795363e-05, 7.547916463707761e-11
0, 0, 88, 3.316555739729665e-05, 7.535515363565439e-11
0, 0, 89, 3.354129148647189e-05, 7.615481167568404e-11
0, 0, 90, 3.391642530914396e-05, 7.624013814019732e-11
0, 0, 91, 3.413463491597213e-05, 7.611325154381171e-11
0, 0, 92, 3.410130739212036e-05, 7.53587941891882e-11
0, 0, 93, 3.460756124695763e-05, 7.635427125866944e-11
0, 0, 94, 3.499615195323713e-05, 7.713211371557213e-11
0, 0, 95, 3.477504651527852e-05, 7.648828222816462e-11
0, 0, 96, 3.499267040751874e-05, 7.639624558156192e-11
0, 0, 97, 3.514446143526584e-05, 7.630386479213139e-11
0, 0, 98, 3.50604641425889e-05, 7.585419708040736e-11
0, 0, 99, 3.512013427098282e-05, 7.542279745634661e-11
0, 0, 100, 3.524237763485871e-05, 7.537817144015009e-11
0, 0, 101, 3.539937461027876e-05, 7.594886596328922e-11
0, 0, 102, 3.552973066689447e-05, 7.573084142176641e-11
0, 0, 103, 3.579280382837169e-05, 7.623208115249191e-11
0, 0, 104, 3.583654324756935e-05, 7.610406099498224e-11
0, 0, 105, 3.55874108208809e-05, 7.540979301971788e-11
0, 0, 106, 3.554981958586723e-05, 7.555428614480814e-11
0, 0, 107, 3.545469007804058e-05, 7.52560709194112e-11
0, 0, 108, 3.549240864231251e-05, 7.525236398048326e-11
0, 0, 109, 3.521842882037163e-05, 7.481333477602921e-11
0, 0, 110, 3.51088892784901e-05, 7.45095635386885e-11
0, 0, 111, 3.509303496684879e-05, 7.460298332169429e-11
0, 0, 112, 3.485066554276273e-05, 7.370621106727341e-11
0, 0, 113, 3.522300175973214e-05, 7.476206407337861e-11
0, 0, 114, 3.509194721118547e-05, 7.441784047541171e-11
0, 0, 115, 3.505134736769833e-05, 7.433401886247653e-11
0, 0, 116, 3.476977872196585e-05, 7.338338517227916e-11
0, 0, 117, 3.477407881291583e-05, 7.375440540506866e-11
0, 0, 118, 3.486838249955326e-05, 7.376994762033378e-11
0, 0, 119, 3.478174039628357e-05, 7.307925606872444e-11
0, 0, 120, 3.484333865344524e-05, 7.326130808581573e-11
0, 0, 121, 3.499845479382202e-05, 7.37482305726328e-11
0, 0, 122, 3.516918877721764e-05, 7.405241422657516e-11
0, 0, 123, 3.491336610750295e-05, 7.349214719666546e-11
0, 0, 124, 3.46678243658971e-05, 7.290371135738317e-11
0, 0, 125, 3.470999945420772e-05, 7.274918645685078e-11
0, 0, 126, 3.457977800280787e-05, 7.292809795367092e-11
0, 0, 127, 3.452421151450835e-05, 7.286822600537114e-11
0, 0, 128, 3.449946962064132e-05, 7.233180610290275e-11
0, 0, 129, 3.43036517733708e-05, 7.227162008437818e-11
0, 0, 130, 3.426750117796473e-05, 7.229224504043967e-11
0, 0, 131, 3.411899524508044e-05, 7.180734404892201e-11
0, 0, 132, 3.410363206057809e-05, 7.186886234332755e-11
0, 0, 133, 3.435108737903647e-05, 7.253359783211857e-11
0, 0, 134, 3.394508894416504e-05, 7.154302373078371e-11
0, 0, 135, 3.395761450519785e-05, 7.146676987372059e-11
0, 0, 136, 3.410392309888266e-05, 7.196656596107795e-11
0, 0, 137, 3.404440212761983e-05, 7.167850658808195e-11
0, 0, 138, 3.375832966412418e-05, 7.111832494070127e-11
0, 0, 139, 3.356980960234068e-05, 7.104068933065159e-11
0, 0, 140, 3.329260653117672e-05, 7.035810490742438e-11
0, 0, 141, 3.335924702696502e-05, 7.076781933678442e-11
0, 0, 142, 3.309358362457715e-05, 7.008172076960941e-11
0, 0, 143, 3.316070433356799e-05, 7.014090313101749e-11
0, 0, 144, 3.298032243037596e-05, 6.969517786570036e-11
0, 0, 145, 3.287707295385189e-05, 6.976505214973194e-11
0, 0, 146, 3.284026388428174e-05, 6.992604851431762e-11
0, 0, 147, 3.264708357164636e-05, 6.943728203034302e-11
0, 0, 148, 3.269855005783029e-05, 6.949293696741046e-11
0, 0, 149, 3.259688674006611e-05, 6.928750124507038e-11
0, 0, 150, 3.246160849812441e-05, 6.915393668496545e-11
0, 0, 151, 3.233992902096361e-05, 6.907369186550228e-11
0, 0, 152, 3.210176510037854e-05, 6.859143813333166e-11
0, 0, 153, 3.174207813572139e-05, 6.779606395552982e-11
0, 0, 154, 3.166286842315458e-05, 6.775317666431814e-11
0, 0, 155, 3.137000749120489e-05, 6.739330736966403e-11
0, 0, 156, 3.097638182225637e-05, 6.627496309392117e-11
0, 0, 157, 3.053761611226946e-05, 6.525047978840751e-11
0, 0, 158, 3.012452179973479e-05, 6.430217167020301e-11
0, 0, 159, 2.87887487502303e-05, 6.041216729578953e-11
