# TOPAS Version: 4.0
# Parameter File: ./6.6_20MeV.txt
# Results for scorer: DoseOnRTGrid
# Scored in component: Scorer
# X in 1 bin  of 0.5 cm
# Y in 1 bin  of 0.5 cm
# Z in 160 bins of 0.125 cm
# DoseToMedium ( Gy ) : Sum   Standard_Deviation   
0, 0, 0, 2.738881335062615e-07, 6.773788654713175e-12
0, 0, 1, 2.761984205790213e-07, 6.909059186463349e-12
0, 0, 2, 2.879762064367242e-07, 7.464862252935076e-12
0, 0, 3, 2.528945799440407e-07, 6.682543487633451e-12
0, 0, 4, 2.603769075903983e-07, 7.001945699033353e-12
0, 0, 5, 3.019403322923608e-07, 8.151449685219136e-12
0, 0, 6, 2.921583472925704e-07, 7.605309655767764e-12
0, 0, 7, 3.001427444360161e-07, 7.944725960670093e-12
0, 0, 8, 2.653169701716251e-07, 6.626734704098026e-12
0, 0, 9, 2.840585295871279e-07, 7.236139290542646e-12
0, 0, 10, 2.723665772919048e-07, 6.803928968670356e-12
0, 0, 11, 3.116152527127269e-07, 7.714686393007772e-12
0, 0, 12, 2.806247039188747e-07, 6.861111585701084e-12
0, 0, 13, 2.978955819799012e-07, 7.420061332618026e-12
0, 0, 14, 2.690916005576582e-07, 6.972909339467668e-12
0, 0, 15, 2.890349435347161e-07, 7.237560729326259e-12
0, 0, 16, 2.563311056746898e-07, 7.100708974489883e-12
0, 0, 17, 3.149776830468909e-07, 8.101934084899134e-12
0, 0, 18, 2.652164141636604e-07, 6.860320795677118e-12
0, 0, 19, 2.580693774234533e-07, 6.330515889977512e-12
0, 0, 20, 2.959018843284866e-07, 7.412444969716916e-12
0, 0, 21, 2.914556773703225e-07, 6.95268862560656e-12
0, 0, 22, 2.774894198864786e-07, 6.879008865036313e-12
0, 0, 23, 3.056728701267275e-07, 7.871127266694412e-12
0, 0, 24, 2.698121193134284e-07, 6.606072039700161e-12
0, 0, 25, 2.796728608700505e-07, 6.861904871457815e-12
0, 0, 26, 2.687712310489587e-07, 6.806340553045696e-12
0, 0, 27, 2.821440716616053e-07, 6.898531838996695e-12
0, 0, 28, 3.087300228798995e-07, 7.235405317646706e-12
0, 0, 29, 3.551224949660536e-07, 8.334909013696667e-12
0, 0, 30, 3.373507411197352e-07, 7.890723938713018e-12
0, 0, 31, 2.974160508983914e-07, 7.595732995533152e-12
0, 0, 32, 3.344058256971039e-07, 7.797364727587295e-12
0, 0, 33, 3.434685424963391e-07, 7.751710352914161e-12
0, 0, 34, 3.335484848321357e-07, 7.809660113911253e-12
0, 0, 35, 3.444542073793855e-07, 7.996938375202889e-12
0, 0, 36, 3.526746468196507e-07, 7.996485004009496e-12
0, 0, 37, 3.448399468197749e-07, 7.776176646892985e-12
0, 0, 38, 3.075038250699436e-07, 6.732645021571759e-12
0, 0, 39, 3.28674133243112e-07, 7.896297977581173e-12
0, 0, 40, 3.629860714227107e-07, 8.119372412661794e-12
0, 0, 41, 3.345314496527863e-07, 7.563285979916437e-12
0, 0, 42, 3.492284292860859e-07, 7.527529151668534e-12
0, 0, 43, 3.819314713382482e-07, 8.348288176372196e-12
0, 0, 44, 3.587941250771109e-07, 7.751285627573524e-12
0, 0, 45, 3.228482228223584e-07, 7.219101687835067e-12
0, 0, 46, 3.524648377606354e-07, 8.000979268769348e-12
0, 0, 47, 3.520103746268433e-07, 7.799511905570943e-12
0, 0, 48, 3.500902892028535e-07, 7.56302859526046e-12
0, 0, 49, 3.8603499774581e-07, 8.434527964206937e-12
0, 0, 50, 3.67639046316981e-07, 7.845189184397714e-12
0, 0, 51, 3.839901125957113e-07, 8.225910324954987e-12
0, 0, 52, 4.356184888365533e-07, 8.852235878365246e-12
0, 0, 53, 4.528720296548272e-07, 9.100043772460919e-12
0, 0, 54, 3.905162486717018e-07, 8.07450792160141e-12
0, 0, 55, 3.85007894010414e-07, 7.651676841292759e-12
0, 0, 56, 4.366931420918263e-07, 8.981325318309646e-12
0, 0, 57, 4.580092820560822e-07, 9.532347633570159e-12
0, 0, 58, 4.734989431653958e-07, 9.775057972060431e-12
0, 0, 59, 4.737547953936883e-07, 9.39777427850272e-12
0, 0, 60, 4.43158143070832e-07, 8.661960349964904e-12
0, 0, 61, 4.731272156277555e-07, 9.615853861072779e-12
0, 0, 62, 4.935281481266429e-07, 9.645156833010941e-12
0, 0, 63, 5.092273909212963e-07, 1.025110686569347e-11
0, 0, 64, 4.817339345208893e-07, 9.136210564217207e-12
0, 0, 65, 4.582881274473039e-07, 8.737519092467921e-12
0, 0, 66, 4.889053002443688e-07, 9.520779549918315e-12
0, 0, 67, 4.817270564672071e-07, 9.334886690038463e-12
0, 0, 68, 4.829298632103018e-07, 8.934774174708319e-12
0, 0, 69, 4.884710733676911e-07, 9.290950415248392e-12
0, 0, 70, 4.490817673286074e-07, 8.152022897203485e-12
0, 0, 71, 5.380999255066854e-07, 1.003516818654906e-11
0, 0, 72, 5.266874154585821e-07, 9.962183564625405e-12
0, 0, 73, 6.076769523133407e-07, 1.016265326957137e-11
0, 0, 74, 8.028401339288394e-07, 1.263151446328497e-11
0, 0, 75, 9.219713206221058e-07, 1.35367052705749e-11
0, 0, 76, 1.193469870486297e-06, 1.556291700625073e-11
0, 0, 77, 1.538427000014053e-06, 1.768409178213057e-11
0, 0, 78, 1.987583800655557e-06, 2.085630092259306e-11
0, 0, 79, 2.631089955684729e-06, 2.372825639115165e-11
0, 0, 80, 3.203688038411201e-06, 2.660923619064285e-11
0, 0, 81, 4.045687092002481e-06, 2.930593557779947e-11
0, 0, 82, 5.063282060291385e-06, 3.32586721953177e-11
0, 0, 83, 6.21815888735e-06, 3.670736695706438e-11
0, 0, 84, 7.310736691579223e-06, 3.982072801421094e-11
0, 0, 85, 8.549837730242871e-06, 4.274703555712965e-11
0, 0, 86, 9.977743502531666e-06, 4.611205269888138e-11
0, 0, 87, 1.151169999502599e-05, 4.975836394245566e-11
0, 0, 88, 1.289222382183652e-05, 5.255536745916745e-11
0, 0, 89, 1.44542173075024e-05, 5.532879797019784e-11
0, 0, 90, 1.603318560228217e-05, 5.802807686968047e-11
0, 0, 91, 1.789228190318681e-05, 6.15298614962711e-11
0, 0, 92, 1.938567402248736e-05, 6.342348479560313e-11
0, 0, 93, 2.117348594765645e-05, 6.662457671695257e-11
0, 0, 94, 2.233864142908715e-05, 6.766748609414534e-11
0, 0, 95, 2.354167190787848e-05, 6.926014908744194e-11
0, 0, 96, 2.503240830264986e-05, 7.144879469715851e-11
0, 0, 97, 2.615412449813448e-05, 7.226443042634829e-11
0, 0, 98, 2.757869697234128e-05, 7.427358269685835e-11
0, 0, 99, 2.884224886656739e-05, 7.604863891746119e-11
0, 0, 100, 2.98956783808535e-05, 7.689497815238175e-11
0, 0, 101, 3.05966314044781e-05, 7.734598410171803e-11
0, 0, 102, 3.131551420665346e-05, 7.836837194960992e-11
0, 0, 103, 3.194372402504086e-05, 7.791606605195499e-11
0, 0, 104, 3.317406662972644e-05, 8.022500504203669e-11
0, 0, 105, 3.35596596414689e-05, 8.019705131605503e-11
0, 0, 106, 3.408264092286117e-05, 7.979535058253162e-11
0, 0, 107, 3.469740113359876e-05, 8.07156197124594e-11
0, 0, 108, 3.5148852475686e-05, 8.033429516211992e-11
0, 0, 109, 3.551017653080635e-05, 8.10116947810321e-11
0, 0, 110, 3.58536526618991e-05, 8.104102440411048e-11
0, 0, 111, 3.614433080656454e-05, 8.054737969776721e-11
0, 0, 112, 3.622411531978287e-05, 8.033031256741131e-11
0, 0, 113, 3.66153362847399e-05, 8.067597572529576e-11
0, 0, 114, 3.674812614917755e-05, 8.027893813843634e-11
0, 0, 115, 3.670381192932837e-05, 8.022883430288547e-11
0, 0, 116, 3.629620186984539e-05, 7.917728968131903e-11
0, 0, 117, 3.651866791187786e-05, 7.920971473647763e-11
0, 0, 118, 3.675607149489224e-05, 7.943538069711023e-11
0, 0, 119, 3.66064632544294e-05, 7.843694495134832e-11
0, 0, 120, 3.659800495370291e-05, 7.853162019313992e-11
0, 0, 121, 3.669568104669452e-05, 7.855925258555625e-11
0, 0, 122, 3.637183908722363e-05, 7.774500935686966e-11
0, 0, 123, 3.626940451795235e-05, 7.71728464278066e-11
0, 0, 124, 3.630878563853912e-05, 7.70907063714311e-11
0, 0, 125, 3.614716115407646e-05, 7.661368023574672e-11
0, 0, 126, 3.59925688826479e-05, 7.621887337231756e-11
0, 0, 127, 3.574199945433065e-05, 7.553644724800617e-11
0, 0, 128, 3.557842501322739e-05, 7.544358551592089e-11
0, 0, 129, 3.524586281855591e-05, 7.488749479940872e-11
0, 0, 130, 3.529801688273437e-05, 7.493158746184718e-11
0, 0, 131, 3.495122291496955e-05, 7.389121905177423e-11
0, 0, 132, 3.509662565193139e-05, 7.420519619365826e-11
0, 0, 133, 3.509073940222152e-05, 7.398100947084783e-11
0, 0, 134, 3.508747249725275e-05, 7.432012728191945e-11
0, 0, 135, 3.466365524218418e-05, 7.313304538554054e-11
0, 0, 136, 3.471775926300324e-05, 7.326123332954721e-11
0, 0, 137, 3.452128294156864e-05, 7.320140003789677e-11
0, 0, 138, 3.425360409892164e-05, 7.244983888140432e-11
0, 0, 139, 3.41779705195222e-05, 7.212865076972579e-11
0, 0, 140, 3.397765249246731e-05, 7.168989582878338e-11
0, 0, 141, 3.392611688468605e-05, 7.174808243641297e-11
0, 0, 142, 3.355435546836816e-05, 7.106536940019387e-11
0, 0, 143, 3.338677561259829e-05, 7.037602178652169e-11
0, 0, 144, 3.337453745189123e-05, 7.070106429764978e-11
0, 0, 145, 3.307838414912112e-05, 7.02477544679088e-11
0, 0, 146, 3.295296119176783e-05, 6.985593198532638e-11
0, 0, 147, 3.279708107584156e-05, 6.964899976298388e-11
0, 0, 148, 3.249138535466045e-05, 6.895134256441067e-11
0, 0, 149, 3.274112896178849e-05, 6.956719000843992e-11
0, 0, 150, 3.256339186918922e-05, 6.921574404175482e-11
0, 0, 151, 3.227249544579536e-05, 6.874088541648839e-11
0, 0, 152, 3.205658140359446e-05, 6.818976261725041e-11
0, 0, 153, 3.187606853316538e-05, 6.792235889236491e-11
0, 0, 154, 3.190154893673025e-05, 6.830685611833083e-11
0, 0, 155, 3.140862827422097e-05, 6.707819127127908e-11
0, 0, 156, 3.118018867098726e-05, 6.692723919928315e-11
0, 0, 157, 3.059524169657379e-05, 6.540983766209047e-11
0, 0, 158, 3.006812585226726e-05, 6.403895603829924e-11
0, 0, 159, 2.873048833862413e-05, 6.038629298826666e-11
