# TOPAS Version: 4.0
# Parameter File: Fluence.txt
# Results for scorer: FluenceSecondaire
# Filtered by: OnlyIncludeParticlesOfGeneration = "Secondary"
# Filtered by: OnlyIncludeParticlesNamed = 1 "e-"
# Scored in component: Scorer
# X in 1 bin  of 1 cm
# Y in 1 bin  of 1 cm
# Z in 80 bins of 0.1 cm
# Fluence ( /mm2 ) : Sum   
# Binned by incident track energy in 200 bins of 0.05 MeV from 0.001 MeV to 10.001 MeV
# First bin is underflow, next to last bin is overflow, last bin is for case of no incident track.
0, 0.1772013157606125, 0.389724463224411, 0.650944709777832, 0.9671851396560669, 1.15606164932251, 0.9908362627029419, 0.9357132911682129, 0.9298668503761292, 1.067927718162537, 0.9782670736312866, 1.018472075462341, 1.130113005638123, 0.9971088171005249, 0.9411405324935913, 0.7140734195709229, 0.8875266313552856, 0.8170987963676453, 0.7550144791603088, 0.5584423542022705, 0.8563682436943054, 0.6614179015159607, 0.8362488746643066, 0.5703172087669373, 0.572581946849823, 0.4811632335186005, 0.5225293636322021, 0.4501957297325134, 0.277505099773407, 0.4524352848529816, 0.4033787846565247, 0.4485146999359131, 0.2661439180374146, 0.3294285833835602, 0.4477494060993195, 0.2188700735569, 0.1968483328819275, 0.220649465918541, 0.2472333312034607, 0.3008149564266205, 0.2487202435731888, 0.1751057058572769, 0.1772562712430954, 0.2427622228860855, 0.1417818069458008, 0.2344101220369339, 0.1127115041017532, 0.1139333173632622, 0.1464297920465469, 0.2034319788217545, 0.1221422478556633, 0.08281718194484711, 0.09379876405000687, 0.1511345058679581, 0.08427385985851288, 0.1597976237535477, 0.1045358180999756, 0.08932819962501526, 0.09105247259140015, 0.1215193122625351, 0.05378459766507149, 0.1794833987951279, 0.05920172110199928, 0.0760481059551239, 0.1072177514433861, 0.1739001721143723, 0.07522855699062347, 0.05557388067245483, 0.07695963978767395, 0.02307688444852829, 0.06143790483474731, 0.06154273822903633, 0.04196344688534737, 0.06807161122560501, 0.05892921984195709, 0.05411691591143608, 0.03348555415868759, 0.04445481300354004, 0.05053859576582909, 0.02465655840933323, 0.03634646907448769, 0.03707095235586166, 0, 0, 0.03541877865791321, 0.04654005914926529, 0.05644850432872772, 0.03295639902353287, 0.04176805540919304, 0.02292382717132568, 0.09830091893672943, 0.01024226471781731, 0.04175099357962608, 0.02772823348641396, 0.02121623978018761, 0.04503117129206657, 0.03149940073490143, 0.003823335748165846, 0.01598349027335644, 0.01605097949504852, 0.005903135053813457, 0.02768986113369465, 0.02342746220529079, 0.02626656554639339, 0.03059923276305199, 0.0444638580083847, 0.01046308968216181, 0.01079363748431206, 0, 0.01613002642989159, 0.01070443261414766, 0.03209317475557327, 0.01021453645080328, 0.03069927543401718, 0.01046740170568228, 0.02144736424088478, 0.01734108664095402, 0, 0, 0.01063021551817656, 0.003760284278541803, 0.004501727409660816, 0, 0, 0.004747409373521805, 0, 0, 0, 0.001637371140532196, 0.01001823414117098, 0.01790612190961838, 0.01743095926940441, 0.01006297674030066, 0, 0, 0, 0, 0.03384701162576675, 0.01053694542497396, 0.01009923778474331, 0, 0.01060225442051888, 0.01084413938224316, 0, 0, 0, 0, 0, 0.01976420357823372, 0, 0, 0, 0, 0, 0, 0, 0, 0, 0, 0, 0.007056111004203558, 0, 0, 0, 0, 0, 0, 0, 0, 0, 0, 0.004499642644077539, 0, 0, 0, 0, 0, 0, 0, 0, 0, 0, 0, 0, 0, 0, 0, 0, 0, 0, 0, 0, 0, 0, 0, 0, 0, 0, 0, 0, 0, 0, 0
0, 0.21877720952034, 0.4155207276344299, 0.7485314607620239, 0.9787545800209045, 1.267165422439575, 1.034615516662598, 0.936262845993042, 1.090124249458313, 1.074737668037415, 0.9819009304046631, 1.266202926635742, 0.9819995760917664, 0.8894655108451843, 0.8514878153800964, 1.012903690338135, 0.7601903676986694, 0.7283122539520264, 0.7084554433822632, 0.5819439888000488, 0.7043462991714478, 0.6363699436187744, 0.6140356659889221, 0.5292583703994751, 0.4432727098464966, 0.5738482475280762, 0.3709268569946289, 0.4083874523639679, 0.332911491394043, 0.3426422476768494, 0.5882598161697388, 0.2238726615905762, 0.3002955317497253, 0.302259236574173, 0.4662140905857086, 0.3830406963825226, 0.2852197885513306, 0.1801157295703888, 0.3165782988071442, 0.2409656047821045, 0.2077548503875732, 0.2509393393993378, 0.1964158266782761, 0.2522081136703491, 0.1319279372692108, 0.1327148526906967, 0.1204673871397972, 0.235849142074585, 0.1192828938364983, 0.2142423391342163, 0.1263726204633713, 0.06182365864515305, 0.126674622297287, 0.1039174720644951, 0.1983552873134613, 0.1027780026197433, 0.1000497862696648, 0.1031146943569183, 0.06626389920711517, 0.08541423082351685, 0.06155909597873688, 0.08665204048156738, 0.08993963897228241, 0.0971640944480896, 0.07226826250553131, 0.1145069301128387, 0.04485643655061722, 0.04129818454384804, 0.1005503982305527, 0.1036494299769402, 0.06095187366008759, 0.07749728113412857, 0.04553600773215294, 0.01249914709478617, 0.05044033378362656, 0.06384644657373428, 0.06053433939814568, 0.02910164184868336, 0.05487754195928574, 0.01052015367895365, 0.05505577474832535, 0.05867275595664978, 0.01857010833919048, 0.03160777315497398, 0.02729436010122299, 0.01178713049739599, 0.0227387361228466, 0.001482011051848531, 0.02016500756144524, 0.03742368891835213, 0.02041460946202278, 0.05492323637008667, 0.02098923176527023, 0.04750672355294228, 0.0315181277692318, 0.03639814630150795, 0.01004154700785875, 0.02057727053761482, 0.01046391762793064, 0.05162813514471054, 0, 0.01049204543232918, 0.03227358311414719, 0.001465938054025173, 0.01109569426625967, 0.02137049101293087, 0, 0.01013398636132479, 0.05169513449072838, 0.01353086158633232, 0.01235722471028566, 0.0001178563106805086, 0.01105526462197304, 0.01060287095606327, 0.02237123064696789, 0.04291300475597382, 0, 0.01035089232027531, 0.01035054586827755, 0.01008852943778038, 0.01950367912650108, 0, 0.01064698863774538, 0, 0, 0, 0, 0, 0, 0.01058210805058479, 0, 0, 0.002351538045331836, 0.01017808075994253, 0, 0, 0, 0.01010161638259888, 0.004730592016130686, 0, 0, 0, 0, 0.01036939211189747, 0, 0.02129701338708401, 0.01017268002033234, 0, 0, 0, 0, 0, 0, 0, 0, 0, 0, 0, 0, 0, 0, 0, 0, 0, 0, 0, 0, 0, 0, 0, 0, 0, 0, 0, 0, 0, 0, 0, 0, 0, 0, 0, 0, 0, 0, 0, 0, 0, 0, 0, 0, 0, 0, 0, 0, 0, 0, 0, 0, 0, 0, 0, 0
0, 0.1916643679141998, 0.420432984828949, 0.7451077103614807, 1.067196249961853, 1.228723764419556, 1.084120512008667, 1.011972784996033, 0.8342160582542419, 0.9149430990219116, 1.079433560371399, 1.205633401870728, 0.9058564305305481, 0.7842374444007874, 1.011557340621948, 0.9837042093276978, 0.8145958185195923, 0.5711873769760132, 0.6414446830749512, 0.704627513885498, 0.6443179249763489, 0.7307961583137512, 1.037930846214294, 0.4507304728031158, 0.5596043467521667, 0.4288971424102783, 0.4962629973888397, 0.2991131246089935, 0.409684419631958, 0.3444849252700806, 0.3950827717781067, 0.4513466954231262, 0.2918723225593567, 0.2806130051612854, 0.3677551746368408, 0.244720458984375, 0.2925428748130798, 0.3082629442214966, 0.2191652655601501, 0.2297313660383224, 0.2657099664211273, 0.1959379762411118, 0.2082942575216293, 0.1416760236024857, 0.2278744131326675, 0.3030407428741455, 0.1666665524244308, 0.156167596578598, 0.08917317539453506, 0.1054093912243843, 0.1135551780462265, 0.0554337315261364, 0.1057841181755066, 0.1354482620954514, 0.1147745251655579, 0.05554309859871864, 0.06926175951957703, 0.09081771224737167, 0.1972609460353851, 0.09367046505212784, 0.1095910370349884, 0.08805245161056519, 0.09634367376565933, 0.09121080487966537, 0.02301210910081863, 0.07214301824569702, 0.1295527517795563, 0.07013833522796631, 0.04819971695542336, 0, 0.05912866815924644, 0.1019938737154007, 0.1036802604794502, 0.06141797825694084, 0.04995035752654076, 0.07347958534955978, 0.05926072224974632, 0.0009845099411904812, 0, 0.08088356256484985, 0.0121291521936655, 0.03389647603034973, 0.02958451025187969, 0.006899243220686913, 0.04706751927733421, 0.03139739856123924, 0.04487170651555061, 0.03362743183970451, 0.01056289207190275, 0, 0, 0.02052593789994717, 4.742987869121862e-07, 0.0117404917255044, 0.06006535887718201, 0.04238563403487206, 0.04119014367461205, 0.01527469046413898, 0.03279739245772362, 0.01041155867278576, 0.01006408222019672, 0.01391660794615746, 0.05025471746921539, 0, 0, 0.0204590167850256, 0.01128994300961494, 0, 0, 0.02054283395409584, 0.0214877687394619, 0.03059183433651924, 0.02113982476294041, 0.01048911362886429, 0.001234767376445234, 0.0007952888845466077, 0.01054274197667837, 0.03198342397809029, 0.02039838582277298, 0.02212903834879398, 0, 0, 0.001743072643876076, 0.02023215964436531, 0.01074171531945467, 0, 0, 0, 0, 0, 0.001052099862135947, 0, 0, 0, 0, 0, 0, 0.01005055569112301, 0.02768412418663502, 0.002529834397137165, 0.01011854317039251, 0, 0, 0, 0, 0, 0, 0, 0.01126513071358204, 0.02420139499008656, 0, 0, 0, 0, 0, 0, 0, 0, 0, 0, 0, 0, 0, 0, 0, 0, 0, 0, 0, 0, 0, 0, 0, 0, 0, 0, 0, 0, 0, 0, 0, 0, 0, 0, 0, 0, 0, 0, 0, 0, 0, 0, 0, 0, 0, 0, 0, 0, 0, 0, 0, 0, 0
0, 0.2450618892908096, 0.4634810984134674, 0.7462850213050842, 1.105787873268127, 1.037843823432922, 1.073371767997742, 1.010019779205322, 1.263265609741211, 1.170689105987549, 1.142879843711853, 1.141754150390625, 0.9210950136184692, 0.8497512340545654, 0.8252708315849304, 1.105417728424072, 1.051753640174866, 1.002897262573242, 0.8066999316215515, 0.8071684241294861, 0.6135322451591492, 0.5873078107833862, 0.4711973965167999, 0.5648325085639954, 0.5483660101890564, 0.5681662559509277, 0.5758664011955261, 0.5522276759147644, 0.2200946360826492, 0.3770269453525543, 0.3563016355037689, 0.3052298426628113, 0.4548129737377167, 0.3615406453609467, 0.2722970247268677, 0.2215933799743652, 0.4242560267448425, 0.2755759954452515, 0.1724626570940018, 0.1086692437529564, 0.2012688666582108, 0.1307601034641266, 0.1614975482225418, 0.2159457951784134, 0.2751888930797577, 0.08566350489854813, 0.1654746830463409, 0.2434810549020767, 0.2204361259937286, 0.2020530700683594, 0.1198062971234322, 0.1525733023881912, 0.1493227630853653, 0.06908980011940002, 0.07979036122560501, 0.1090179905295372, 0.07353760302066803, 0.09637352824211121, 0.06635575741529465, 0.08509240299463272, 0.05310849472880363, 0.04500684142112732, 0.1703553050756454, 0.05064054951071739, 0.04195814579725266, 0.09036866575479507, 0.1185176447033882, 0.07704445719718933, 0.04294117912650108, 0.05806874111294746, 0.07100933790206909, 0.08298861235380173, 0.04074009880423546, 0.0519295409321785, 0.04006275907158852, 0.08466115593910217, 0.0270015224814415, 0.07103420794010162, 0.04293005168437958, 0.01775557175278664, 0.03314614668488503, 0.01607436314225197, 0.04776588454842567, 0.04363534972071648, 0.01087737921625376, 0.005086875054985285, 0.006129217334091663, 0.004813522100448608, 0.05860913917422295, 0, 0.02405471168458462, 0.03134070336818695, 0.03980215266346931, 0, 0.03517526015639305, 0.002281596884131432, 0.007502659223973751, 0.02847785502672195, 0.0337543897330761, 0.05809291824698448, 0.01053822599351406, 0.01359492260962725, 0.02069000340998173, 0.02007104642689228, 0.02031493559479713, 0.02079956606030464, 0, 0, 0.01764112524688244, 0.0119720445945859, 0, 0, 0.03037306107580662, 0.0106147937476635, 0.0288591030985117, 0.03204669803380966, 0.01020878925919533, 0, 0, 0, 0.02081259526312351, 0.02113447710871696, 0.01133817620575428, 0, 0, 0, 0, 0.02116372250020504, 0, 0.007469543721526861, 0, 0, 0, 0.007667684927582741, 0, 0, 0, 0, 0, 0, 0, 0, 0, 0.01000585593283176, 0, 0, 0, 0, 0.00646448927000165, 0, 0, 0, 0.04293843731284142, 0, 0, 0, 0, 0, 0, 0, 0, 0, 0, 0, 0, 0, 0, 0, 0, 0, 0, 0, 0, 0, 0, 0, 0, 0, 0, 0, 0, 0, 0, 0, 0, 0, 0, 0, 0, 0, 0, 0, 0, 0, 0, 0, 0, 0, 0, 0, 0, 0, 0
0, 0.261640191078186, 0.4470782876014709, 0.7699310183525085, 1.232530117034912, 1.076733350753784, 1.186495780944824, 0.9562996029853821, 0.9657756686210632, 1.062345862388611, 0.9179478287696838, 0.9309830069541931, 0.8963988423347473, 0.9990254640579224, 1.0316481590271, 0.7769307494163513, 0.8442978858947754, 0.6535934805870056, 0.754978358745575, 0.6314802765846252, 0.7512283325195312, 0.5649961829185486, 0.6231982111930847, 0.620486855506897, 0.4447181224822998, 0.3210782110691071, 0.3685488700866699, 0.4873555898666382, 0.4935355186462402, 0.389775812625885, 0.3048670887947083, 0.4432236552238464, 0.2972012162208557, 0.3605422079563141, 0.2460122108459473, 0.2015976905822754, 0.2759150266647339, 0.2242304235696793, 0.1906068325042725, 0.1633634567260742, 0.2627999782562256, 0.1701842248439789, 0.1912112832069397, 0.1779334396123886, 0.1967053115367889, 0.09406407177448273, 0.1703580915927887, 0.2015732228755951, 0.08701810240745544, 0.1620616018772125, 0.1475660800933838, 0.1897042691707611, 0.1037819683551788, 0.155106246471405, 0.1050959527492523, 0.1219325885176659, 0.09444296360015869, 0.05739866942167282, 0.1224739253520966, 0.1517426669597626, 0.05852952226996422, 0.03470920771360397, 0.1423398554325104, 0.06761926412582397, 0.1625122874975204, 0.04254120588302612, 0.1154001355171204, 0.04239501059055328, 0.03445658460259438, 0.08102583885192871, 0.08788987994194031, 0.03361876308917999, 0.095873162150383, 0.01129667181521654, 0.1113694608211517, 0.05429793149232864, 0.0517045333981514, 0.04043447971343994, 0.06787250936031342, 0.01059044618159533, 0.02353589236736298, 0.08194064348936081, 0.01925875805318356, 0.0006460773292928934, 0.03566701337695122, 0.02075519412755966, 0.03215824812650681, 0.01251252647489309, 0.03182424977421761, 0, 0.01276072673499584, 0.04521837458014488, 0.03157058358192444, 0.01299553550779819, 0.02251107431948185, 0.0156013909727335, 0, 0.01007401198148727, 0.02053047716617584, 0, 0.03413274139165878, 0.04857437685132027, 0.02070577256381512, 0.01042636949568987, 0.03011597506701946, 0, 0, 0.01348407194018364, 0.03078074753284454, 0, 0.00519841443747282, 0.01011601928621531, 0, 0.0116018271073699, 0.0165411401540041, 0, 0.01020739134401083, 0.01054599229246378, 0.02064455859363079, 0.01043128501623869, 0.02079411968588829, 0, 0.01032511983066797, 0.01004757639020681, 0.01023788191378117, 0.006656421348452568, 0.01084494777023792, 0, 0, 0, 0.01181846484541893, 0, 0, 0, 0, 0, 0, 0, 0, 0.002034993376582861, 0, 0, 0, 0, 0, 0.01002958416938782, 0.0008380186045542359, 0, 0, 0, 0, 0, 0, 0.005335435271263123, 0, 0.01047228742390871, 0, 0, 0, 0.01062546297907829, 0, 0, 0, 0, 0, 0, 0, 0, 0.009492368437349796, 0, 0, 0, 0, 0, 0, 0, 0, 0, 0, 0, 0, 0, 0, 0, 0, 0, 0, 0, 0, 0, 0, 0, 0, 0, 0, 0, 0, 0, 0, 0, 0, 0, 0
0, 0.2557328641414642, 0.4418601393699646, 0.713998556137085, 1.110907316207886, 1.289016485214233, 1.155436992645264, 1.073089957237244, 0.9845432043075562, 1.071524143218994, 1.032692551612854, 0.9750882387161255, 0.8826799988746643, 0.8480454683303833, 0.8860012888908386, 0.7006827592849731, 1.016992807388306, 0.9193493723869324, 0.6721547842025757, 0.6863190531730652, 0.4704130887985229, 0.5842323303222656, 0.50714111328125, 0.4798890650272369, 0.5174731016159058, 0.6269100904464722, 0.3615192472934723, 0.2550062537193298, 0.3420930802822113, 0.4121248126029968, 0.3125000298023224, 0.4279900789260864, 0.2071022987365723, 0.2954200208187103, 0.3975725769996643, 0.3343414664268494, 0.2558578848838806, 0.298006147146225, 0.2955499887466431, 0.2475632131099701, 0.2889163494110107, 0.2536311745643616, 0.2767278850078583, 0.1872803121805191, 0.1297432780265808, 0.2284301519393921, 0.23257677257061, 0.1011899337172508, 0.1259463280439377, 0.1044329851865768, 0.1165333017706871, 0.1077397018671036, 0.1661504358053207, 0.1265591084957123, 0.1304210722446442, 0.183101549744606, 0.1126003786921501, 0.06843053549528122, 0.09990003705024719, 0.05220124125480652, 0.06286470592021942, 0.06195183470845222, 0.04589973017573357, 0.03108453005552292, 0.08234392106533051, 0.06038621813058853, 0.1150154769420624, 0.02656222693622112, 0.09388013184070587, 0.07013880461454391, 0.07042160630226135, 0.06408364325761795, 0.0739557072520256, 0.0479896254837513, 0.01314703933894634, 0.04335905984044075, 0.04657405242323875, 0.03731809183955193, 0.03797613456845284, 0.07077699154615402, 0.07674521207809448, 0.025019196793437, 0, 0.07473811507225037, 0.06750669330358505, 0.03759497776627541, 0.01149640046060085, 0.002426346763968468, 0.03164750710129738, 0.02105062641203403, 0.02655372954905033, 0.01252080220729113, 0.01038019265979528, 0.02048064395785332, 0.03262932226061821, 0.03107814304530621, 0.03779011219739914, 0.0104307858273387, 0.01047375053167343, 0.01190337631851435, 0.02233107946813107, 0, 0, 0, 0.02238325215876102, 0.04307293146848679, 0.01032072678208351, 0.01107402611523867, 0.03320173174142838, 0, 0.01006977166980505, 0.01029812544584274, 0.02182004414498806, 0.01055050455033779, 0.02061374858021736, 0.000633172458037734, 0, 0.01688566617667675, 0.01033088006079197, 0.01063824258744717, 0, 0.02142813988029957, 0, 0.01050688978284597, 0.01026751752942801, 0, 0.02024910785257816, 0, 0.01020247582346201, 0, 0, 0.004242306109517813, 0, 0.01071539241820574, 0, 0, 0.01115838065743446, 0, 0.01014957949519157, 0, 0, 0, 0, 0, 0, 0, 0, 0, 0, 0, 0, 0, 0, 0, 0, 0, 0, 0, 0.01027004793286324, 0, 0, 0, 0, 0, 0, 0, 0, 0, 0, 0, 0, 0, 0, 0, 0, 0, 0, 0, 0, 0, 0, 0, 0, 0, 0, 0, 0, 0, 0, 0, 0, 0, 0, 0, 0, 0, 0, 0, 0, 0, 0, 0, 0
3.959599226277533e-08, 0.2449281215667725, 0.5403040051460266, 0.783593475818634, 1.161778688430786, 1.236282229423523, 1.015460848808289, 1.065167784690857, 0.9179476499557495, 1.154237508773804, 1.182991147041321, 1.141592264175415, 1.148935675621033, 1.018467903137207, 0.7951903343200684, 0.7570611238479614, 0.5526288151741028, 0.7339436411857605, 0.7723446488380432, 0.6676856279373169, 0.5262778997421265, 0.4329674243927002, 0.6933272480964661, 0.3767596483230591, 0.3856884837150574, 0.5397629141807556, 0.3568448126316071, 0.3819304406642914, 0.5364173650741577, 0.5079004764556885, 0.2634634673595428, 0.2321117520332336, 0.1925705075263977, 0.2246143817901611, 0.3442133069038391, 0.3297041058540344, 0.3437372148036957, 0.1969601809978485, 0.1591407209634781, 0.2692193984985352, 0.1134384945034981, 0.289420485496521, 0.284436970949173, 0.1841274350881577, 0.1771351546049118, 0.1132976189255714, 0.2052623331546783, 0.1577308773994446, 0.1698512881994247, 0.123975470662117, 0.1118157133460045, 0.1050737202167511, 0.1253402531147003, 0.1164336279034615, 0.1077184900641441, 0.1353084444999695, 0.08861794322729111, 0.1124379485845566, 0.09735757857561111, 0.1090093776583672, 0.0982140451669693, 0.05597950518131256, 0.09474912285804749, 0.04406627267599106, 0.02938482910394669, 0.08619517832994461, 0.07850105315446854, 0.03589536249637604, 0.04527255147695541, 0.05729588866233826, 0.07771291583776474, 0.05482139438390732, 0.02763145044445992, 0.0669630691409111, 0.0457417257130146, 0.02142843976616859, 0.06464448571205139, 0.08120793104171753, 0.05642746761441231, 0.01134163420647383, 0.01235635112971067, 0.03167011961340904, 0.04633889719843864, 0.08139389008283615, 0.02184787578880787, 0.03841742873191833, 0.03624511137604713, 0.07631427049636841, 0.03342333436012268, 0.02243880555033684, 0, 0.01607632264494896, 0.01046569645404816, 0.01041984464973211, 0.04163244366645813, 0.0138328243046999, 0.01008324045687914, 0, 0.01892762258648872, 0.04916153848171234, 0.02335086651146412, 0.01044909097254276, 0, 0.03511971607804298, 0.01451649982482195, 0, 0.002955732634291053, 0.01689013093709946, 0.01002290286123753, 0.01002040226012468, 0.01010903064161539, 0.0100127924233675, 0.01286859903484583, 0, 0, 0.01013174746185541, 0.01047160662710667, 0.02051212638616562, 0, 0, 0.01098907459527254, 0, 0.01074376236647367, 0.0139810387045145, 0, 0.006698346696794033, 0.01013545319437981, 0, 0.01017935480922461, 0, 0, 0, 0.01030532363802195, 0, 0, 0, 0, 0, 0.002712615067139268, 0, 0.008561573922634125, 0, 0.009704211726784706, 0.01032594032585621, 0, 0, 0, 0, 0, 0, 0, 0, 0, 0, 0, 0, 0, 0, 0, 0, 0, 0.01031145919114351, 0, 0, 0, 0, 0, 0, 0, 0, 0, 0, 0, 0, 0, 0, 0, 0, 0, 0, 0, 0, 0, 0, 0, 0, 0, 0, 0, 0, 0, 0, 0, 0, 0, 0, 0, 0, 0, 0, 0, 0, 0
3.368294301253627e-07, 0.2759124040603638, 0.4656987190246582, 1.002132415771484, 1.244807243347168, 1.192388892173767, 1.1120845079422, 1.233871102333069, 0.826184093952179, 1.052839279174805, 1.04386579990387, 1.196386575698853, 0.9662691950798035, 1.055975437164307, 0.8924187421798706, 1.086713910102844, 1.009822249412537, 0.7097558975219727, 0.9169151186943054, 0.6660194396972656, 0.6557421684265137, 0.4369477331638336, 0.7186164855957031, 0.4527033269405365, 0.598258376121521, 0.3203357458114624, 0.3995513617992401, 0.3667479455471039, 0.4240764081478119, 0.4633568525314331, 0.3933513760566711, 0.386504590511322, 0.3362379372119904, 0.2863147854804993, 0.3283804655075073, 0.3475379943847656, 0.153848797082901, 0.1743515282869339, 0.276913046836853, 0.2918644547462463, 0.2747063338756561, 0.2327045351266861, 0.1565946638584137, 0.21944260597229, 0.03810940682888031, 0.1328272223472595, 0.1759472787380219, 0.1003447622060776, 0.1088748872280121, 0.1033124029636383, 0.1082391813397408, 0.2342293560504913, 0.1133430749177933, 0.08126790821552277, 0.1727941483259201, 0.07454840838909149, 0.1105590313673019, 0.1484393924474716, 0.08100998401641846, 0.09434771537780762, 0.1031858175992966, 0.09792996942996979, 0.08919571340084076, 0.1167735829949379, 0.0551336370408535, 0.04531135782599449, 0.077763631939888, 0.1272091716527939, 0.03259973973035812, 0.04113065451383591, 0.04987308382987976, 0.05717508122324944, 0.04111725464463234, 0.05774134397506714, 0.04990018159151077, 0.01023934315890074, 0.04858491197228432, 0.02878611721098423, 0.02500842325389385, 0.05052535235881805, 0.03047728538513184, 0.05293367058038712, 0.04379698634147644, 0.02868435345590115, 0.01731963828206062, 0.06586256623268127, 0.04669349640607834, 0.02085976302623749, 0.04913144558668137, 0.01130205206573009, 0.02624496817588806, 0.05948532000184059, 0.01034586969763041, 0.01041628606617451, 0.02422384358942509, 0.01108619384467602, 0.01114027947187424, 0.02335214242339134, 0.0233819168061018, 0.01084396336227655, 0.006092158611863852, 0.01144158188253641, 0.03211157023906708, 0.0112717067822814, 0.02133876830339432, 0.01473774667829275, 0.02159260772168636, 0.01304809376597404, 0, 0, 0.01007219310849905, 0, 0.01004819665104151, 0.01006626151502132, 0.01018071081489325, 0.01073961704969406, 0, 0, 0.01032479852437973, 0.02024251036345959, 0, 0, 0, 0.009146453812718391, 0, 0.01067714206874371, 0, 0.00790926069021225, 0.001832989859394729, 0, 0.01021254621446133, 0.01007139962166548, 0.001094787614420056, 0, 0, 0, 0, 0, 0, 0, 0, 0, 0, 0, 0, 0, 0, 0, 0, 0.003036465495824814, 0, 0, 0, 0, 0, 0, 0, 0, 0, 0, 0, 0, 0, 0, 0, 0, 0, 0, 0, 0, 0, 0, 0, 0, 0, 0, 0, 0, 0, 0, 0, 0, 0, 0, 0, 0, 0, 0, 0, 0, 0, 0, 0, 0, 0, 0, 0, 0, 0, 0, 0, 0, 0
0, 0.3136514127254486, 0.5404257774353027, 0.8396191596984863, 1.322130918502808, 1.344096183776855, 1.217706203460693, 1.189445972442627, 0.8651515245437622, 1.005069851875305, 1.086901664733887, 1.234794020652771, 1.104600429534912, 1.037874221801758, 1.064383029937744, 0.8485670685768127, 0.9589681625366211, 0.7480594515800476, 0.8192350268363953, 0.7605181932449341, 0.4970133006572723, 0.6075683832168579, 0.4517031908035278, 0.6823253631591797, 0.4410792589187622, 0.4837677478790283, 0.4066521227359772, 0.3968529999256134, 0.3731819987297058, 0.3870404958724976, 0.2955471873283386, 0.3829033374786377, 0.5049312710762024, 0.2950807213783264, 0.2368010878562927, 0.3190074861049652, 0.2170181572437286, 0.136343315243721, 0.2751297354698181, 0.2535408437252045, 0.1342445611953735, 0.1359790414571762, 0.3058693110942841, 0.1533273756504059, 0.1828327476978302, 0.1299533843994141, 0.1240299791097641, 0.1006714254617691, 0.1727878749370575, 0.08399616181850433, 0.180369958281517, 0.1015639528632164, 0.04187390953302383, 0.06666361540555954, 0.1824503093957901, 0.1415577083826065, 0.09676334261894226, 0.1163096353411674, 0.04959331825375557, 0.06410624831914902, 0.07750703394412994, 0.05813778191804886, 0.110857330262661, 0.128902405500412, 0.1072595044970512, 0.05583031103014946, 0.04438218101859093, 0.04569609090685844, 0.05139691382646561, 0.1040897816419601, 0.06345713883638382, 0.05526982992887497, 0.05739809572696686, 0.02817629836499691, 0.07166563719511032, 0.04283715039491653, 0.0448496975004673, 0.05281833559274673, 0.03617436438798904, 0.01035153120756149, 0.03306259959936142, 0.01081022433936596, 0.0243031419813633, 0.05097625404596329, 0.03369158133864403, 0.04477160051465034, 0.02747007645666599, 0.01066046580672264, 0.03168223425745964, 0.04771275818347931, 0.02292975597083569, 0.01199530810117722, 0.02476777322590351, 0.01025961153209209, 0.03665892779827118, 0.01440402027219534, 0.01384656503796577, 0.01041250769048929, 0, 0.01055215857923031, 0.01656798645853996, 0.02096990868449211, 0.01019349507987499, 0.02398449741303921, 0, 0.01003291457891464, 0, 0, 0.02178956754505634, 0, 0.01048876345157623, 0.01805193163454533, 0, 0.03573325648903847, 0, 0.007544238120317459, 0.01008321531116962, 0.01022967137396336, 0, 0.02089955285191536, 0, 0, 0.01007065549492836, 0, 0, 0, 0.01191212888807058, 0.009386295452713966, 0, 0.01089646015316248, 0, 0, 0, 0.01037582568824291, 0, 0, 0, 0, 0, 0, 0, 0, 0, 0, 0, 0, 0, 0, 0, 0, 0, 0, 0, 0, 0, 0, 0, 0, 0, 0, 0, 0, 0, 0, 0, 0, 0, 0, 0, 0, 0, 0, 0, 0, 0, 0, 0, 0, 0, 0, 0, 0, 0, 0, 0, 0, 0, 0, 0, 0, 0, 0, 0, 0, 0, 0, 0, 0, 0, 0, 0, 0, 0
0, 0.2815813422203064, 0.4768247008323669, 0.9690796136856079, 1.292224645614624, 1.452204823493958, 1.187849283218384, 1.288013100624084, 1.049291849136353, 1.227158546447754, 1.284067392349243, 1.262083172798157, 1.172458052635193, 0.9696264863014221, 1.134520649909973, 1.114208936691284, 0.8836044669151306, 0.8847965598106384, 0.8602620363235474, 0.7873888611793518, 0.5158739686012268, 0.6344541907310486, 0.6652820110321045, 0.49553182721138, 0.3453988432884216, 0.4489224851131439, 0.5022950768470764, 0.3677707016468048, 0.4414399564266205, 0.460435152053833, 0.3656609952449799, 0.2678762674331665, 0.4086672365665436, 0.3412877321243286, 0.3180526494979858, 0.2718175053596497, 0.3060072660446167, 0.1983510404825211, 0.3150380253791809, 0.2281723916530609, 0.2082674503326416, 0.1513827741146088, 0.1861597448587418, 0.1023584008216858, 0.1087154597043991, 0.2282064706087112, 0.2257565408945084, 0.1883285343647003, 0.1639067530632019, 0.08144799619913101, 0.1415769904851913, 0.07401987910270691, 0.1327212452888489, 0.1012945547699928, 0.1420080661773682, 0.1502599716186523, 0.09354227781295776, 0.1152665689587593, 0.1383964121341705, 0.112292967736721, 0.1205006167292595, 0.04613687098026276, 0.03638982772827148, 0.03212912753224373, 0.06906089931726456, 0.03265278041362762, 0.1150119379162788, 0.1252490282058716, 0.1298844367265701, 0.05200889706611633, 0.02569927275180817, 0.07984647899866104, 0.07920931279659271, 0.04309704527258873, 0.06237068027257919, 0.04698763787746429, 0.02622575685381889, 0.04398209601640701, 0.06247001513838768, 0.04240084066987038, 0.03998338431119919, 0.04985697194933891, 0.03704101219773293, 0.03617876023054123, 0.01122977863997221, 0.003764152526855469, 0.01058629713952541, 0.03274846822023392, 0.04649310931563377, 0.01205329317599535, 0.02259151637554169, 0.04665875062346458, 0.03717996552586555, 0.05674944445490837, 0.0172281414270401, 0.02692163921892643, 0.03682736307382584, 0.03818278014659882, 0, 0.01088190451264381, 0.01046458166092634, 0, 0, 0.01853994838893414, 0.03574863076210022, 0, 0.02076439931988716, 0, 0.003149010008201003, 0.01004001405090094, 0, 0.01232756115496159, 0, 0.01036135107278824, 0, 0.01130901463329792, 0.02327435836195946, 0, 0, 0.01333016715943813, 0.02034974098205566, 0, 0.01112076919525862, 0.007431233767420053, 0, 0.02624556794762611, 0, 0, 0, 0, 0.01046828925609589, 0, 0, 0, 0, 0, 0.0105648972094059, 0, 0, 0, 0, 0, 0, 0, 0, 0, 0, 0, 0, 0, 0, 0, 0, 0, 0, 0, 0, 0, 0, 0, 0, 0, 0, 0, 0, 0, 0, 0, 0, 0, 0, 0, 0, 0, 0, 0, 0, 0, 0, 0, 0, 0, 0, 0, 0, 0, 0, 0, 0, 0, 0, 0, 0, 0, 0, 0, 0, 0, 0, 0, 0, 0, 0
