# TOPAS Version: 4.0
# Parameter File: 6.9_10MeV_Al.txt
# Results for scorer: DoseOnRTGrid
# Scored in component: Scorer
# X in 1 bin  of 0.5 cm
# Y in 1 bin  of 0.5 cm
# Z in 250 bins of 0.02 cm
# DoseToMedium ( Gy ) : Sum   Standard_Deviation   
0, 0, 0, 4.014419801023905e-07, 8.650529943560095e-12
0, 0, 1, 3.973253228650719e-07, 8.910662125284986e-12
0, 0, 2, 3.62360481176438e-07, 7.643410875831749e-12
0, 0, 3, 4.010471457149833e-07, 8.509316174449474e-12
0, 0, 4, 4.348419508914958e-07, 9.284350886274518e-12
0, 0, 5, 4.286343937565107e-07, 9.610226583839868e-12
0, 0, 6, 3.923885287804296e-07, 8.480194273318212e-12
0, 0, 7, 3.956827470119606e-07, 8.681631326305802e-12
0, 0, 8, 3.7568065636151e-07, 7.511484505644079e-12
0, 0, 9, 4.04483387228538e-07, 8.504410699814829e-12
0, 0, 10, 3.706732343289332e-07, 8.280686087195586e-12
0, 0, 11, 3.899198475210142e-07, 8.382878469780533e-12
0, 0, 12, 4.26709959810978e-07, 9.256315530393162e-12
0, 0, 13, 3.916503032996843e-07, 8.350246442674778e-12
0, 0, 14, 4.43468906041744e-07, 9.663739452504274e-12
0, 0, 15, 4.201916965484997e-07, 8.579360451700842e-12
0, 0, 16, 4.441954501999135e-07, 9.176251603901023e-12
0, 0, 17, 4.391037862205849e-07, 9.398722668085322e-12
0, 0, 18, 3.759980984341382e-07, 8.378705187188583e-12
0, 0, 19, 4.244452043167257e-07, 8.692201248941351e-12
0, 0, 20, 4.919793923363613e-07, 9.967472722183417e-12
0, 0, 21, 4.353410361090937e-07, 9.379954235577895e-12
0, 0, 22, 4.312657893024152e-07, 9.51947009308416e-12
0, 0, 23, 4.367254007320298e-07, 9.066956719258563e-12
0, 0, 24, 4.5038996177027e-07, 9.463388648158357e-12
0, 0, 25, 4.707815719484643e-07, 9.722682958052837e-12
0, 0, 26, 4.102364243863121e-07, 9.059518155174222e-12
0, 0, 27, 4.169537248799315e-07, 8.401832026732514e-12
0, 0, 28, 4.725660289750522e-07, 9.90043975667257e-12
0, 0, 29, 4.598667828759062e-07, 9.223096832056978e-12
0, 0, 30, 5.17608725658647e-07, 9.720583908957087e-12
0, 0, 31, 5.166862706573738e-07, 1.079301308779547e-11
0, 0, 32, 4.982184691471048e-07, 9.840803612317169e-12
0, 0, 33, 4.981320671504363e-07, 9.820876173276025e-12
0, 0, 34, 5.192456455915817e-07, 1.013152087222974e-11
0, 0, 35, 4.960767796546861e-07, 9.713333485684268e-12
0, 0, 36, 4.896552354693995e-07, 9.74315530789558e-12
0, 0, 37, 4.663764912038459e-07, 9.580384631476862e-12
0, 0, 38, 5.345570457393478e-07, 9.767708629615145e-12
0, 0, 39, 5.119729848956922e-07, 9.810828914937681e-12
0, 0, 40, 5.264764695311897e-07, 1.076171325695104e-11
0, 0, 41, 6.194421189320565e-07, 1.200466341354092e-11
0, 0, 42, 5.81559618240135e-07, 1.063306090626713e-11
0, 0, 43, 6.818928568463889e-07, 1.147131720410417e-11
0, 0, 44, 6.613259984078468e-07, 1.090173554135135e-11
0, 0, 45, 7.572648428322282e-07, 1.252323381632716e-11
0, 0, 46, 8.108888209790166e-07, 1.294760921211142e-11
0, 0, 47, 9.319160767518042e-07, 1.433840221506236e-11
0, 0, 48, 1.009317770694906e-06, 1.556146261322216e-11
0, 0, 49, 1.174103999801446e-06, 1.695489707614227e-11
0, 0, 50, 1.247591967512562e-06, 1.658805207827901e-11
0, 0, 51, 1.270643906536861e-06, 1.674753959368691e-11
0, 0, 52, 1.211726043948147e-06, 1.554234970410111e-11
0, 0, 53, 1.405697048539878e-06, 1.693686631066441e-11
0, 0, 54, 1.501539713899547e-06, 1.767351438680838e-11
0, 0, 55, 1.558719418426335e-06, 1.826167949901729e-11
0, 0, 56, 1.75237187249877e-06, 1.968720990737555e-11
0, 0, 57, 1.861349232967768e-06, 1.989539051029518e-11
0, 0, 58, 2.126011850123177e-06, 2.177120425609055e-11
0, 0, 59, 2.289583790116012e-06, 2.383614032482096e-11
0, 0, 60, 2.414678419881966e-06, 2.261760985979358e-11
0, 0, 61, 2.757064066827297e-06, 2.527768450457717e-11
0, 0, 62, 2.94536357614561e-06, 2.575365361892709e-11
0, 0, 63, 3.053526143048657e-06, 2.66393988318096e-11
0, 0, 64, 3.356372872076463e-06, 2.77718147776675e-11
0, 0, 65, 3.521043709042715e-06, 2.753417547850207e-11
0, 0, 66, 3.960419689974515e-06, 2.952202600901214e-11
0, 0, 67, 4.274352249922231e-06, 2.991489297240375e-11
0, 0, 68, 4.611904842022341e-06, 3.189004301426169e-11
0, 0, 69, 4.765845005749725e-06, 3.232760062366611e-11
0, 0, 70, 5.24742745255935e-06, 3.502708691950543e-11
0, 0, 71, 5.520565082406392e-06, 3.527615670893791e-11
0, 0, 72, 5.929510734858923e-06, 3.576607627020976e-11
0, 0, 73, 6.433724593080115e-06, 3.857746228497707e-11
0, 0, 74, 6.687778750347206e-06, 3.820452450500774e-11
0, 0, 75, 6.892099008837249e-06, 3.845486479491196e-11
0, 0, 76, 7.708125849603675e-06, 4.179731369809654e-11
0, 0, 77, 8.071620868577156e-06, 4.209245356364753e-11
0, 0, 78, 8.735153642192017e-06, 4.483878418393289e-11
0, 0, 79, 8.84284690982895e-06, 4.407226220232691e-11
0, 0, 80, 9.546122782921884e-06, 4.630408857859754e-11
0, 0, 81, 9.886299267236609e-06, 4.580196993259251e-11
0, 0, 82, 1.028772476274753e-05, 4.74985881086007e-11
0, 0, 83, 1.094695744541241e-05, 4.936800253589495e-11
0, 0, 84, 1.163202159659704e-05, 5.030147088767785e-11
0, 0, 85, 1.187502857646905e-05, 5.103488183282942e-11
0, 0, 86, 1.212003917316906e-05, 5.085433468680922e-11
0, 0, 87, 1.264722322957823e-05, 5.197423386292317e-11
0, 0, 88, 1.328214784734882e-05, 5.237642323025135e-11
0, 0, 89, 1.398131917085266e-05, 5.459648926872799e-11
0, 0, 90, 1.495933156547835e-05, 5.72304190743296e-11
0, 0, 91, 1.562805846333504e-05, 5.863561243586467e-11
0, 0, 92, 1.591940781509038e-05, 5.749078757146398e-11
0, 0, 93, 1.654181323829107e-05, 5.913562272619756e-11
0, 0, 94, 1.754721415636595e-05, 6.190119981985926e-11
0, 0, 95, 1.843559039116371e-05, 6.456451983715952e-11
0, 0, 96, 1.878572402347345e-05, 6.424111769049118e-11
0, 0, 97, 1.965122464753222e-05, 6.592085367573956e-11
0, 0, 98, 2.007155308092479e-05, 6.616825748276681e-11
0, 0, 99, 2.03797662834404e-05, 6.699688211371464e-11
0, 0, 100, 1.864100522652734e-05, 5.371801152344443e-11
0, 0, 101, 2.143694473488722e-05, 6.020125054874816e-11
0, 0, 102, 2.394656075921375e-05, 6.467131197913219e-11
0, 0, 103, 2.597451748442836e-05, 6.646915678412339e-11
0, 0, 104, 2.857157596736215e-05, 7.048421533138535e-11
0, 0, 105, 3.084143463638611e-05, 7.301849249180643e-11
0, 0, 106, 3.321464464534074e-05, 7.593056883549553e-11
0, 0, 107, 3.598104740376584e-05, 7.972943471547915e-11
0, 0, 108, 3.764666689676233e-05, 8.057185964653305e-11
0, 0, 109, 4.048488335683942e-05, 8.446293975236551e-11
0, 0, 110, 4.246408207109198e-05, 8.544258098741513e-11
0, 0, 111, 4.460430864128284e-05, 8.816908055041313e-11
0, 0, 112, 4.645231456379406e-05, 8.938844767157464e-11
0, 0, 113, 4.836497464566492e-05, 9.075639828708552e-11
0, 0, 114, 5.066941230325028e-05, 9.328010487036161e-11
0, 0, 115, 5.265555228106678e-05, 9.439793733435749e-11
0, 0, 116, 5.46452974958811e-05, 9.666603956295922e-11
0, 0, 117, 5.706688898499124e-05, 9.864070144977279e-11
0, 0, 118, 5.879257878405042e-05, 9.925755011382811e-11
0, 0, 119, 6.108336674515158e-05, 1.016023946842486e-10
0, 0, 120, 6.266690616030246e-05, 1.020264610604135e-10
0, 0, 121, 6.446802581194788e-05, 1.032730562715147e-10
0, 0, 122, 6.603372457902879e-05, 1.044216082807611e-10
0, 0, 123, 6.826905155321583e-05, 1.067359802978478e-10
0, 0, 124, 6.996366573730484e-05, 1.08000955582242e-10
0, 0, 125, 7.080850627971813e-05, 1.078331727793275e-10
0, 0, 126, 7.218213431769982e-05, 1.081445129080607e-10
0, 0, 127, 7.243901927722618e-05, 1.071491577842668e-10
0, 0, 128, 7.329779327847064e-05, 1.073282701920297e-10
0, 0, 129, 7.416013249894604e-05, 1.080529470228918e-10
0, 0, 130, 7.466560055036098e-05, 1.075801681969135e-10
0, 0, 131, 7.527754496550187e-05, 1.077316808019916e-10
0, 0, 132, 7.633736822754145e-05, 1.082699980221314e-10
0, 0, 133, 7.693767111049965e-05, 1.081821149151872e-10
0, 0, 134, 7.699064735788852e-05, 1.083195946451843e-10
0, 0, 135, 7.66923840274103e-05, 1.068401400818757e-10
0, 0, 136, 7.694885425735265e-05, 1.062151554815232e-10
0, 0, 137, 7.597775402246043e-05, 1.037937286024315e-10
0, 0, 138, 7.604515849379823e-05, 1.033262982910261e-10
0, 0, 139, 7.624888530699536e-05, 1.028291528576792e-10
0, 0, 140, 7.55348228267394e-05, 1.019819333026926e-10
0, 0, 141, 7.515056495321915e-05, 1.005585211160483e-10
0, 0, 142, 7.426638330798596e-05, 9.923560883669559e-11
0, 0, 143, 7.351280510192737e-05, 9.763053853322376e-11
0, 0, 144, 7.27331280359067e-05, 9.647151020022285e-11
0, 0, 145, 7.206376903923228e-05, 9.527423053863237e-11
0, 0, 146, 7.096338231349364e-05, 9.244472352387664e-11
0, 0, 147, 6.993226270424202e-05, 9.026537517168686e-11
0, 0, 148, 6.865061004646122e-05, 8.823083545529936e-11
0, 0, 149, 6.752031185897067e-05, 8.485678214103433e-11
0, 0, 150, 8.242596959462389e-05, 1.123414478292146e-10
0, 0, 151, 8.120980783132836e-05, 1.084423153616315e-10
0, 0, 152, 8.041749970288947e-05, 1.056019865418325e-10
0, 0, 153, 7.985731645021588e-05, 1.049696874948252e-10
0, 0, 154, 7.915857713669538e-05, 1.026920249976794e-10
0, 0, 155, 7.890697452239692e-05, 1.024805317858933e-10
0, 0, 156, 7.878497854107991e-05, 1.028765174816962e-10
0, 0, 157, 7.836816075723618e-05, 1.021428351020892e-10
0, 0, 158, 7.782326429150999e-05, 1.014804388744605e-10
0, 0, 159, 7.759089930914342e-05, 1.013668755816189e-10
0, 0, 160, 7.690450001973659e-05, 9.935226221304026e-11
0, 0, 161, 7.639304385520518e-05, 9.874316587367982e-11
0, 0, 162, 7.614014612045139e-05, 9.784281948027329e-11
0, 0, 163, 7.603572157677263e-05, 9.834401460297806e-11
0, 0, 164, 7.582492253277451e-05, 9.801722290625943e-11
0, 0, 165, 7.520319195464253e-05, 9.700998219028893e-11
0, 0, 166, 7.52720152377151e-05, 9.8225436474593e-11
0, 0, 167, 7.44210192351602e-05, 9.588928756213014e-11
0, 0, 168, 7.448050018865615e-05, 9.619662728474054e-11
0, 0, 169, 7.412778359139338e-05, 9.548477403987242e-11
0, 0, 170, 7.393200939986855e-05, 9.51966604342036e-11
0, 0, 171, 7.41459007258527e-05, 9.608251652163353e-11
0, 0, 172, 7.324017497012392e-05, 9.437029673908035e-11
0, 0, 173, 7.302429730771109e-05, 9.4096053915481e-11
0, 0, 174, 7.24118435755372e-05, 9.338032488634447e-11
0, 0, 175, 7.2347407694906e-05, 9.31654923077551e-11
0, 0, 176, 7.207107410067692e-05, 9.272982234024598e-11
0, 0, 177, 7.14083798811771e-05, 9.142643311940942e-11
0, 0, 178, 7.138973160181195e-05, 9.16967260954442e-11
0, 0, 179, 7.155686034820974e-05, 9.258859571546586e-11
0, 0, 180, 7.142464892240241e-05, 9.190734332899136e-11
0, 0, 181, 7.112696766853333e-05, 9.217280759422282e-11
0, 0, 182, 7.065072713885456e-05, 9.086094177547792e-11
0, 0, 183, 6.98257063049823e-05, 8.916236840957418e-11
0, 0, 184, 7.01074895914644e-05, 9.015490923764951e-11
0, 0, 185, 7.004180952208117e-05, 9.029131615348782e-11
0, 0, 186, 6.96967908879742e-05, 8.914898214615261e-11
0, 0, 187, 7.020602788543329e-05, 9.038806938476211e-11
0, 0, 188, 7.005283987382427e-05, 9.081198958234209e-11
0, 0, 189, 6.974759162403643e-05, 9.030158400284541e-11
0, 0, 190, 6.930295057827607e-05, 8.881938042602929e-11
0, 0, 191, 6.901423330418766e-05, 8.840476604916609e-11
0, 0, 192, 6.86841958668083e-05, 8.792369402682439e-11
0, 0, 193, 6.849558121757582e-05, 8.795272565586587e-11
0, 0, 194, 6.848965858807787e-05, 8.756186382094803e-11
0, 0, 195, 6.779130490031093e-05, 8.68027721678629e-11
0, 0, 196, 6.798276444897056e-05, 8.683674171300971e-11
0, 0, 197, 6.759817188140005e-05, 8.617329466685638e-11
0, 0, 198, 6.77675343467854e-05, 8.674744790185653e-11
0, 0, 199, 6.726685387548059e-05, 8.613895784874379e-11
0, 0, 200, 6.696787022519857e-05, 8.583214527793034e-11
0, 0, 201, 6.682193634333089e-05, 8.488827096222658e-11
0, 0, 202, 6.701037636958063e-05, 8.592662247420702e-11
0, 0, 203, 6.671942537650466e-05, 8.537273216884519e-11
0, 0, 204, 6.6773769503925e-05, 8.575458396844993e-11
0, 0, 205, 6.68599022901617e-05, 8.569281221601774e-11
0, 0, 206, 6.629424024140462e-05, 8.436160061497092e-11
0, 0, 207, 6.625248352065682e-05, 8.441651093835968e-11
0, 0, 208, 6.586893141502514e-05, 8.434224714586683e-11
0, 0, 209, 6.565666990354657e-05, 8.301916150843851e-11
0, 0, 210, 6.572202255483717e-05, 8.34609643413906e-11
0, 0, 211, 6.537990702781826e-05, 8.297378285157675e-11
0, 0, 212, 6.550044781761244e-05, 8.370959369590231e-11
0, 0, 213, 6.535251304740086e-05, 8.308366905645593e-11
0, 0, 214, 6.497172580566257e-05, 8.209627021755883e-11
0, 0, 215, 6.522439798573032e-05, 8.385444553175498e-11
0, 0, 216, 6.487697828561068e-05, 8.237113319995631e-11
0, 0, 217, 6.458895950345322e-05, 8.175395671416827e-11
0, 0, 218, 6.484107871074229e-05, 8.332640745304493e-11
0, 0, 219, 6.433943781303242e-05, 8.20833110793494e-11
0, 0, 220, 6.428826600313187e-05, 8.124856448621927e-11
0, 0, 221, 6.418264092644677e-05, 8.161609559138118e-11
0, 0, 222, 6.367384776240215e-05, 8.03244877034655e-11
0, 0, 223, 6.346930604195222e-05, 8.033008541777455e-11
0, 0, 224, 6.363725697156042e-05, 8.150704728523749e-11
0, 0, 225, 6.318819214357063e-05, 8.052649160950929e-11
0, 0, 226, 6.294593185884878e-05, 7.972582960247654e-11
0, 0, 227, 6.282957474468276e-05, 7.998786681013266e-11
0, 0, 228, 6.244866381166503e-05, 7.868356867191665e-11
0, 0, 229, 6.247963756322861e-05, 7.957432328970601e-11
0, 0, 230, 6.26387627562508e-05, 8.015926128224383e-11
0, 0, 231, 6.219944771146402e-05, 7.890170042935246e-11
0, 0, 232, 6.18877966189757e-05, 7.861611351130905e-11
0, 0, 233, 6.168944673845544e-05, 7.796678993709065e-11
0, 0, 234, 6.182237848406658e-05, 7.84371899511648e-11
0, 0, 235, 6.148393003968522e-05, 7.782054048234684e-11
0, 0, 236, 6.106501678004861e-05, 7.593303251580554e-11
0, 0, 237, 6.145304359961301e-05, 7.785187465698185e-11
0, 0, 238, 6.095278513384983e-05, 7.689258577457174e-11
0, 0, 239, 6.051226955605671e-05, 7.557351538774503e-11
0, 0, 240, 6.02266845817212e-05, 7.603061783831969e-11
0, 0, 241, 5.9966288972646e-05, 7.505373561877902e-11
0, 0, 242, 6.00679122726433e-05, 7.570393627730247e-11
0, 0, 243, 5.930603583692573e-05, 7.377625463024274e-11
0, 0, 244, 5.889504245715216e-05, 7.298575555239055e-11
0, 0, 245, 5.833485920447856e-05, 7.19199658478525e-11
0, 0, 246, 5.856723146280274e-05, 7.266147636276883e-11
0, 0, 247, 5.781527579529211e-05, 7.106701568639426e-11
0, 0, 248, 5.641505413223058e-05, 6.769821407197861e-11
0, 0, 249, 5.455551217892207e-05, 6.36847094303677e-11
